###
# Charged Particle in Vertical Electric Field 
#-------- Runtime parameters ----#
# Solver used : backward euler
# Time step : 0.000100
#--------------------------------#
#    t      	     x      	     y      	     z      	     u      	     v      	     w      
###
0.000000e+00	0.000000e+00	0.000000e+00	0.000000e+00	2.000000e+01	0.000000e+00	2.000000e+00
5.000000e-02	9.846746e-01	-1.236439e-01	9.950117e-02	1.918485e+01	-4.898644e+00	1.980100e+00
1.000000e-01	1.898932e+00	-4.834270e-01	1.980123e-01	1.720308e+01	-9.397973e+00	1.960398e+00
1.500000e-01	2.687803e+00	-1.052477e+00	2.955432e-01	1.420005e+01	-1.322852e+01	1.940891e+00
2.000000e-01	3.305144e+00	-1.791554e+00	3.921037e-01	1.038120e+01	-1.616741e+01	1.921579e+00
2.500000e-01	3.716299e+00	-2.651714e+00	4.877034e-01	5.998169e+00	-1.805115e+01	1.902459e+00
3.000000e-01	3.900015e+00	-3.577522e+00	5.823518e-01	1.332389e+00	-1.878457e+01	1.883530e+00
3.500000e-01	3.849484e+00	-4.510593e+00	6.760585e-01	-3.322863e+00	-1.834530e+01	1.864788e+00
4.000000e-01	3.572472e+00	-5.393258e+00	7.688328e-01	-7.680785e+00	-1.678371e+01	1.846233e+00
4.500000e-01	3.090559e+00	-6.172099e+00	8.606840e-01	-1.147861e+01	-1.421837e+01	1.827863e+00
5.000000e-01	2.437523e+00	-6.801159e+00	9.516213e-01	-1.449330e+01	-1.082738e+01	1.809676e+00
5.500000e-01	1.657027e+00	-7.244631e+00	1.041654e+00	-1.655456e+01	-6.836209e+00	1.791669e+00
6.000000e-01	7.997214e-01	-7.478860e+00	1.130790e+00	-1.755424e+01	-2.502835e+00	1.773842e+00
6.500000e-01	-8.001245e-02	-7.493560e+00	1.219040e+00	-1.745180e+01	1.898774e+00	1.756192e+00
7.000000e-01	-9.274909e-01	-7.292186e+00	1.306412e+00	-1.627543e+01	6.095891e+00	1.738718e+00
7.500000e-01	-1.691105e+00	-6.891444e+00	1.392914e+00	-1.411900e+01	9.833814e+00	1.721417e+00
8.000000e-01	-2.325441e+00	-6.320002e+00	1.478555e+00	-1.113492e+01	1.289121e+01	1.704289e+00
8.500000e-01	-2.793959e+00	-5.616482e+00	1.563345e+00	-7.523618e+00	1.509309e+01	1.687331e+00
9.000000e-01	-3.071067e+00	-4.826880e+00	1.647290e+00	-3.520188e+00	1.632071e+01	1.670542e+00
9.500000e-01	-3.143481e+00	-4.001588e+00	1.730401e+00	6.207541e-01	1.651772e+01	1.653920e+00
1.000000e+00	-3.010803e+00	-3.192197e+00	1.812684e+00	4.641175e+00	1.569245e+01	1.637463e+00
1.050000e+00	-2.685287e+00	-2.448292e+00	1.894149e+00	8.295599e+00	1.391609e+01	1.621170e+00
1.100000e+00	-2.190831e+00	-1.814436e+00	1.974803e+00	1.136599e+01	1.131704e+01	1.605039e+00
1.150000e+00	-1.561277e+00	-1.327522e+00	2.054655e+00	1.367464e+01	8.071890e+00	1.589069e+00
1.200000e+00	-8.381214e-01	-1.014652e+00	2.133712e+00	1.509436e+01	4.393537e+00	1.573258e+00
1.250000e+00	-6.780792e-02	-8.916584e-01	2.211982e+00	1.555527e+01	5.173713e-01	1.557604e+00
1.300000e+00	7.012345e-01	-9.623520e-01	2.289474e+00	1.504799e+01	-3.313702e+00	1.542105e+00
1.350000e+00	1.421617e+00	-1.218528e+00	2.366195e+00	1.362304e+01	-6.864381e+00	1.526761e+00
1.400000e+00	2.049893e+00	-1.640707e+00	2.442152e+00	1.138649e+01	-9.921326e+00	1.511570e+00
1.450000e+00	2.549157e+00	-2.199564e+00	2.517353e+00	8.492347e+00	-1.230587e+01	1.496529e+00
1.500000e+00	2.891190e+00	-2.857930e+00	2.591807e+00	5.132114e+00	-1.388436e+01	1.481639e+00
1.550000e+00	3.058027e+00	-3.573236e+00	2.665519e+00	1.522213e+00	-1.457549e+01	1.466896e+00
1.600000e+00	3.042862e+00	-4.300252e+00	2.738498e+00	-2.109835e+00	-1.435426e+01	1.452300e+00
1.650000e+00	2.850247e+00	-4.993923e+00	2.810751e+00	-5.539664e+00	-1.325245e+01	1.437850e+00
1.700000e+00	2.495579e+00	-5.612143e+00	2.882285e+00	-8.559831e+00	-1.135547e+01	1.423543e+00
1.750000e+00	2.003945e+00	-6.118296e+00	2.953107e+00	-1.099227e+01	-8.796065e+00	1.409379e+00
1.800000e+00	1.408375e+00	-6.483403e+00	3.023224e+00	-1.269869e+01	-5.745196e+00	1.395355e+00
1.850000e+00	7.476536e-01	-6.687755e+00	3.092644e+00	-1.358830e+01	-2.400717e+00	1.381471e+00
1.900000e+00	6.380895e-02	-6.721945e+00	3.161373e+00	-1.362249e+01	1.025344e+00	1.367725e+00
1.950000e+00	-6.005381e-01	-6.587247e+00	3.229418e+00	-1.281613e+01	4.320140e+00	1.354116e+00
2.000000e+00	-1.204816e+00	-6.295319e+00	3.296786e+00	-1.123563e+01	7.283143e+00	1.340643e+00
2.050000e+00	-1.712962e+00	-5.867281e+00	3.363484e+00	-8.993815e+00	9.738266e+00	1.327303e+00
2.100000e+00	-2.095557e+00	-5.332229e+00	3.429518e+00	-6.242032e+00	1.154423e+01	1.314096e+00
2.150000e+00	-2.331507e+00	-4.725274e+00	3.494895e+00	-3.160067e+00	1.260259e+01	1.301021e+00
2.200000e+00	-2.409177e+00	-4.085265e+00	3.559622e+00	5.551015e-02	1.286294e+01	1.288076e+00
2.250000e+00	-2.326923e+00	-3.452318e+00	3.623704e+00	3.203796e+00	1.232508e+01	1.275259e+00
2.300000e+00	-2.092992e+00	-2.865315e+00	3.687149e+00	6.092025e+00	1.103802e+01	1.262570e+00
2.350000e+00	-1.724820e+00	-2.359534e+00	3.749963e+00	8.547295e+00	9.096005e+00	1.250007e+00
2.400000e+00	-1.247771e+00	-1.964545e+00	3.812151e+00	1.042683e+01	6.631765e+00	1.237570e+00
2.450000e+00	-6.934206e-01	-1.702499e+00	3.873721e+00	1.162619e+01	3.807603e+00	1.225256e+00
2.500000e+00	-9.748053e-02	-1.586912e+00	3.934678e+00	1.208494e+01	8.047850e-01	1.213064e+00
2.550000e+00	5.024813e-01	-1.622001e+00	3.995029e+00	1.178950e+01	-2.188007e+00	1.200994e+00
2.600000e+00	1.069396e+00	-1.802609e+00	4.054779e+00	1.077307e+01	-4.986457e+00	1.189044e+00
2.650000e+00	1.568967e+00	-2.114713e+00	4.113935e+00	9.112644e+00	-7.421893e+00	1.177213e+00
2.700000e+00	1.971733e+00	-2.536456e+00	4.172502e+00	6.923373e+00	-9.351373e+00	1.165500e+00
2.750000e+00	2.254784e+00	-3.039661e+00	4.230486e+00	4.350739e+00	-1.066599e+01	1.153903e+00
2.800000e+00	2.403048e+00	-3.591684e+00	4.287893e+00	1.560969e+00	-1.129690e+01	1.142421e+00
2.850000e+00	2.410061e+00	-4.157523e+00	4.344729e+00	-1.269628e+00	-1.121880e+01	1.131054e+00
2.900000e+00	2.278195e+00	-4.702017e+00	4.401000e+00	-3.965726e+00	-1.045057e+01	1.119800e+00
2.950000e+00	2.018340e+00	-5.192021e+00	4.456711e+00	-6.363774e+00	-9.053298e+00	1.108658e+00
3.000000e+00	1.649059e+00	-5.598407e+00	4.511867e+00	-8.321846e+00	-7.125613e+00	1.097627e+00
3.050000e+00	1.195291e+00	-5.897780e+00	4.566475e+00	-9.727958e+00	-4.796901e+00	1.086705e+00
3.100000e+00	6.866923e-01	-6.073809e+00	4.620539e+00	-1.050638e+01	-2.218700e+00	1.075892e+00
3.150000e+00	1.557074e-01	-6.118091e+00	4.674065e+00	-1.062160e+01	4.450812e-01	1.065187e+00
3.200000e+00	-3.644819e-01	-6.030514e+00	4.727059e+00	-1.007967e+01	3.028512e+00	1.054588e+00
3.250000e+00	-8.420189e-01	-5.819094e+00	4.779525e+00	-8.927067e+00	5.373913e+00	1.044095e+00
3.300000e+00	-1.248309e+00	-5.499327e+00	4.831470e+00	-7.246976e+00	7.341411e+00	1.033706e+00
3.350000e+00	-1.559719e+00	-5.093080e+00	4.882897e+00	-5.153457e+00	8.817209e+00	1.023421e+00
3.400000e+00	-1.758933e+00	-4.627116e+00	4.933813e+00	-2.783796e+00	9.720087e+00	1.013237e+00
3.450000e+00	-1.835898e+00	-4.131350e+00	4.984222e+00	-2.895720e-01	1.000576e+01	1.003156e+00
3.500000e+00	-1.788297e+00	-3.636939e+00	5.034130e+00	2.172963e+00	9.668873e+00	9.931741e-01
3.550000e+00	-1.621539e+00	-3.174338e+00	5.083541e+00	4.452617e+00	8.742563e+00	9.832919e-01
3.600000e+00	-1.348272e+00	-2.771436e+00	5.132460e+00	6.412473e+00	7.295647e+00	9.735080e-01
3.650000e+00	-9.874589e-01	-2.451887e+00	5.180893e+00	7.938054e+00	5.427672e+00	9.638215e-01
3.700000e+00	-5.630839e-01	-2.233738e+00	5.228843e+00	8.943929e+00	3.262167e+00	9.542314e-01
3.750000e+00	-1.025736e-01	-2.128422e+00	5.276317e+00	9.378404e+00	9.385523e-01	9.447366e-01
3.800000e+00	3.649625e-01	-2.140193e+00	5.323318e+00	9.226044e+00	-1.396774e+00	9.353364e-01
3.850000e+00	8.105599e-01	-2.265998e+00	5.369851e+00	8.507896e+00	-3.599600e+00	9.260297e-01
3.900000e+00	1.207182e+00	-2.495818e+00	5.415922e+00	7.279475e+00	-5.536746e+00	9.168156e-01
3.950000e+00	1.531348e+00	-2.813415e+00	5.461534e+00	5.626653e+00	-7.094059e+00	9.076932e-01
4.000000e+00	1.764513e+00	-3.197467e+00	5.506692e+00	3.659760e+00	-8.183070e+00	8.986615e-01
4.050000e+00	1.894107e+00	-3.622976e+00	5.551401e+00	1.506299e+00	-8.745939e+00	8.897197e-01
4.100000e+00	1.914199e+00	-4.062883e+00	5.595665e+00	-6.972564e-01	-8.758416e+00	8.808669e-01
4.150000e+00	1.825724e+00	-4.489782e+00	5.639489e+00	-2.814056e+00	-8.230662e+00	8.721022e-01
4.200000e+00	1.636294e+00	-4.877611e+00	5.682877e+00	-4.715316e+00	-7.205946e+00	8.634247e-01
4.250000e+00	1.359593e+00	-5.203236e+00	5.725833e+00	-6.288098e+00	-5.757316e+00	8.548335e-01
4.300000e+00	1.014413e+00	-5.447816e+00	5.768361e+00	-7.441962e+00	-3.982503e+00	8.463278e-01
4.350000e+00	6.233970e-01	-5.597882e+00	5.810466e+00	-8.114087e+00	-1.997409e+00	8.379067e-01
4.400000e+00	2.115619e-01	-5.646059e+00	5.852153e+00	-8.272605e+00	7.140237e-02	8.295695e-01
4.450000e+00	-1.952879e-01	-5.591400e+00	5.893424e+00	-7.917944e+00	2.094720e+00	8.213152e-01
4.500000e+00	-5.721678e-01	-5.439319e+00	5.934285e+00	-7.082162e+00	3.948703e+00	8.131430e-01
4.550000e+00	-8.964374e-01	-5.201126e+00	5.974739e+00	-5.826345e+00	5.522412e+00	8.050521e-01
4.600000e+00	-1.149149e+00	-4.893218e+00	6.014791e+00	-4.236259e+00	6.724391e+00	7.970417e-01
4.650000e+00	-1.316145e+00	-4.535962e+00	6.054445e+00	-2.416579e+00	7.487916e+00	7.891111e-01
4.700000e+00	-1.388830e+00	-4.152364e+00	6.093703e+00	-4.840531e-01	7.774624e+00	7.812593e-01
4.750000e+00	-1.364598e+00	-3.766598e+00	6.132571e+00	1.439932e+00	7.576308e+00	7.734857e-01
4.800000e+00	-1.246866e+00	-3.402490e+00	6.171053e+00	3.236925e+00	6.914829e+00	7.657894e-01
4.850000e+00	-1.044752e+00	-3.082058e+00	6.209151e+00	4.798660e+00	5.840169e+00	7.581698e-01
4.900000e+00	-7.723906e-01	-2.824191e+00	6.246871e+00	6.033523e+00	4.426791e+00	7.506259e-01
4.950000e+00	-4.479704e-01	-2.643544e+00	6.284215e+00	6.871874e+00	2.768561e+00	7.431571e-01
5.000000e+00	-9.252669e-02	-2.549721e+00	6.321187e+00	7.269901e+00	9.725776e-01	7.357626e-01
5.050000e+00	2.714103e-01	-2.546781e+00	6.357792e+00	7.211812e+00	-8.476954e-01	7.284416e-01
5.100000e+00	6.212341e-01	-2.633101e+00	6.394032e+00	6.710247e+00	-2.579550e+00	7.211936e-01
5.150000e+00	9.356573e-01	-2.801586e+00	6.429912e+00	5.804938e+00	-4.117969e+00	7.140176e-01
5.200000e+00	1.195998e+00	-3.040216e+00	6.465435e+00	4.559718e+00	-5.371947e+00	7.069130e-01
5.250000e+00	1.387279e+00	-3.332886e+00	6.500604e+00	3.058112e+00	-6.269820e+00	6.998792e-01
5.300000e+00	1.499080e+00	-3.660479e+00	6.535424e+00	1.397789e+00	-6.763307e+00	6.929153e-01
5.350000e+00	1.526087e+00	-4.002103e+00	6.569896e+00	-3.157329e-01	-6.830013e+00	6.860207e-01
5.400000e+00	1.468318e+00	-4.336418e+00	6.604026e+00	-1.975755e+00	-6.474304e+00	6.791947e-01
5.450000e+00	1.331018e+00	-4.642958e+00	6.637817e+00	-3.480993e+00	-5.726500e+00	6.724367e-01
5.500000e+00	1.124234e+00	-4.903375e+00	6.671271e+00	-4.741720e+00	-4.640494e+00	6.657458e-01
5.550000e+00	8.620928e-01	-5.102529e+00	6.704392e+00	-5.685064e+00	-3.289958e+00	6.591216e-01
5.600000e+00	5.618567e-01	-5.229360e+00	6.737184e+00	-6.259171e+00	-1.763411e+00	6.525632e-01
5.650000e+00	2.427926e-01	-5.277484e+00	6.769649e+00	-6.435977e+00	-1.584663e-01	6.460702e-01
5.700000e+00	-7.505423e-02	-5.245497e+00	6.801792e+00	-6.212475e+00	1.424371e+00	6.396417e-01
5.750000e+00	-3.721118e-01	-5.136963e+00	6.833614e+00	-5.610394e+00	2.887952e+00	6.332772e-01
5.800000e+00	-6.304785e-01	-4.960094e+00	6.865120e+00	-4.674375e+00	4.144412e+00	6.269760e-01
5.850000e+00	-8.349939e-01	-4.727151e+00	6.896312e+00	-3.468758e+00	5.120400e+00	6.207375e-01
5.900000e+00	-9.741185e-01	-4.453610e+00	6.927194e+00	-2.073229e+00	5.761314e+00	6.145611e-01
5.950000e+00	-1.040574e+00	-4.157142e+00	6.957769e+00	-5.775972e-01	6.034297e+00	6.084461e-01
6.000000e+00	-1.031706e+00	-3.856481e+00	6.988040e+00	9.239380e-01	5.929825e+00	6.023920e-01
6.050000e+00	-9.495575e-01	-3.570245e+00	7.018009e+00	2.338685e+00	5.461836e+00	5.963982e-01
6.100000e+00	-8.006491e-01	-3.315797e+00	7.047680e+00	3.581146e+00	4.666405e+00	5.904639e-01
6.150000e+00	-5.954873e-01	-3.108192e+00	7.077056e+00	4.578139e+00	3.599075e+00	5.845888e-01
6.200000e+00	-3.478383e-01	-2.959299e+00	7.106140e+00	5.273074e+00	2.331051e+00	5.787720e-01
6.250000e+00	-7.381419e-02	-2.877132e+00	7.134934e+00	5.629105e+00	9.444973e-01	5.730132e-01
6.300000e+00	2.091667e-01	-2.865431e+00	7.163442e+00	5.631013e+00	-4.727473e-01	5.673116e-01
6.350000e+00	4.834798e-01	-2.923518e+00	7.191666e+00	5.285715e+00	-1.832696e+00	5.616668e-01
6.400000e+00	7.323852e-01	-3.046426e+00	7.219609e+00	4.621395e+00	-3.052641e+00	5.560782e-01
6.450000e+00	9.410417e-01	-3.225289e+00	7.247274e+00	3.685347e+00	-4.060151e+00	5.505451e-01
6.500000e+00	1.097384e+00	-3.447969e+00	7.274664e+00	2.540679e+00	-4.797328e+00	5.450671e-01
6.550000e+00	1.192813e+00	-3.699866e+00	7.301782e+00	1.262107e+00	-5.224094e+00	5.396436e-01
6.600000e+00	1.222655e+00	-3.964870e+00	7.328629e+00	-6.888289e-02	-5.320302e+00	5.342741e-01
6.650000e+00	1.186373e+00	-4.226383e+00	7.355210e+00	-1.369189e+00	-5.086587e+00	5.289580e-01
6.700000e+00	1.087516e+00	-4.468350e+00	7.381526e+00	-2.559253e+00	-4.543911e+00	5.236948e-01
6.750000e+00	9.334233e-01	-4.676242e+00	7.407580e+00	-3.567894e+00	-3.731868e+00	5.184840e-01
6.800000e+00	7.346915e-01	-4.837918e+00	7.433375e+00	-4.336529e+00	-2.705874e+00	5.133250e-01
6.850000e+00	5.044597e-01	-4.944329e+00	7.458913e+00	-4.822538e+00	-1.533433e+00	5.082174e-01
6.900000e+00	2.575482e-01	-4.990012e+00	7.484197e+00	-5.001569e+00	-2.897388e-01	5.031606e-01
6.950000e+00	9.511117e-03	-4.973356e+00	7.509230e+00	-4.868683e+00	9.471156e-01	4.981541e-01
7.000000e+00	-2.243370e-01	-4.896627e+00	7.534013e+00	-4.438267e+00	2.101011e+00	4.931974e-01
7.050000e+00	-4.298606e-01	-4.765748e+00	7.558550e+00	-3.742768e+00	3.102453e+00	4.882900e-01
7.100000e+00	-5.949511e-01	-4.589864e+00	7.582843e+00	-2.830331e+00	3.892728e+00	4.834315e-01
7.150000e+00	-7.102332e-01	-4.380713e+00	7.606894e+00	-1.761519e+00	4.427309e+00	4.786213e-01
7.200000e+00	-7.695888e-01	-4.151850e+00	7.630705e+00	-6.053326e-01	4.678314e+00	4.738589e-01
7.250000e+00	-7.704694e-01	-3.917777e+00	7.654280e+00	5.652092e-01	4.635902e+00	4.691440e-01
7.300000e+00	-7.139819e-01	-3.693028e+00	7.677620e+00	1.677654e+00	4.308515e+00	4.644759e-01
7.350000e+00	-6.047487e-01	-3.491276e+00	7.700728e+00	2.664571e+00	3.721998e+00	4.598544e-01
7.400000e+00	-4.505518e-01	-3.324501e+00	7.723606e+00	3.467606e+00	2.917659e+00	4.552787e-01
7.450000e+00	-2.617910e-01	-3.202291e+00	7.746257e+00	4.040903e+00	1.949413e+00	4.507487e-01
7.500000e+00	-5.079064e-02	-3.131296e+00	7.768682e+00	4.353679e+00	8.802123e-01	4.462637e-01
7.550000e+00	1.689989e-01	-3.114875e+00	7.790884e+00	4.391826e+00	-2.220194e-01	4.418233e-01
7.600000e+00	3.838523e-01	-3.152957e+00	7.812865e+00	4.158445e+00	-1.288670e+00	4.374271e-01
7.650000e+00	5.806212e-01	-3.242111e+00	7.834627e+00	3.673320e+00	-2.254684e+00	4.330746e-01
7.700000e+00	7.475335e-01	-3.375827e+00	7.856172e+00	2.971359e+00	-3.062502e+00	4.287655e-01
7.750000e+00	8.748916e-01	-3.544975e+00	7.877504e+00	2.100147e+00	-3.665463e+00	4.244992e-01
7.800000e+00	9.556291e-01	-3.738423e+00	7.898623e+00	1.116760e+00	-4.030461e+00	4.202754e-01
7.850000e+00	9.856942e-01	-3.943761e+00	7.919532e+00	8.405398e-02	-4.139719e+00	4.160936e-01
7.900000e+00	9.642400e-01	-4.148095e+00	7.940233e+00	-9.333223e-01	-3.991581e+00	4.119535e-01
7.950000e+00	8.936123e-01	-4.338845e+00	7.960728e+00	-1.872949e+00	-3.600292e+00	4.078545e-01
8.000000e+00	7.791423e-01	-4.504522e+00	7.981019e+00	-2.678439e+00	-2.994807e+00	4.037963e-01
8.050000e+00	6.287583e-01	-4.635409e+00	8.001108e+00	-3.302797e+00	-2.216710e+00	3.997784e-01
8.100000e+00	4.524451e-01	-4.724127e+00	8.020997e+00	-3.711126e+00	-1.317400e+00	3.958006e-01
8.150000e+00	2.615881e-01	-4.766045e+00	8.040688e+00	-3.882543e+00	-3.547316e-01	3.918623e-01
8.200000e+00	6.824306e-02	-4.759507e+00	8.060184e+00	-3.811184e+00	6.106861e-01	3.879633e-01
8.250000e+00	-1.156204e-01	-4.705879e+00	8.079485e+00	-3.506272e+00	1.519278e+00	3.841030e-01
8.300000e+00	-2.788547e-01	-4.609403e+00	8.098594e+00	-2.991244e+00	2.316154e+00	3.802811e-01
8.350000e+00	-4.118059e-01	-4.476878e+00	8.117514e+00	-2.302027e+00	2.954405e+00	3.764973e-01
8.400000e+00	-5.068786e-01	-4.317190e+00	8.136245e+00	-1.484573e+00	3.397831e+00	3.727511e-01
8.450000e+00	-5.589636e-01	-4.140724e+00	8.154789e+00	-5.918269e-01	3.622963e+00	3.690422e-01
8.500000e+00	-5.657036e-01	-3.958693e+00	8.173149e+00	3.196749e-01	3.620257e+00	3.653702e-01
8.550000e+00	-5.275837e-01	-3.782431e+00	8.191327e+00	1.193363e+00	3.394404e+00	3.617347e-01
8.600000e+00	-4.478451e-01	-3.622689e+00	8.209323e+00	1.976123e+00	2.963763e+00	3.581354e-01
8.650000e+00	-3.322306e-01	-3.488989e+00	8.227141e+00	2.621502e+00	2.358951e+00	3.545719e-01
8.700000e+00	-1.885808e-01	-3.389056e+00	8.244781e+00	3.092439e+00	1.620715e+00	3.510439e-01
8.750000e+00	-2.630890e-02	-3.328380e+00	8.262245e+00	3.363363e+00	7.972205e-01	3.475509e-01
8.800000e+00	1.442106e-01	-3.309923e+00	8.279536e+00	3.421545e+00	-5.906836e-02	3.440928e-01
8.850000e+00	3.123008e-01	-3.333983e+00	8.296655e+00	3.267623e+00	-8.947074e-01	3.406690e-01
8.900000e+00	4.676468e-01	-3.398234e+00	8.313604e+00	2.915299e+00	-1.658587e+00	3.372793e-01
8.950000e+00	6.009242e-01	-3.497916e+00	8.330383e+00	2.390237e+00	-2.305038e+00	3.339233e-01
9.000000e+00	7.043542e-01	-3.626178e+00	8.346996e+00	1.728238e+00	-2.796535e+00	3.306008e-01
9.050000e+00	7.721531e-01	-3.774546e+00	8.363444e+00	9.728376e-01	-3.105856e+00	3.273112e-01
9.100000e+00	8.008485e-01	-3.933474e+00	8.379728e+00	1.724627e-01	-3.217548e+00	3.240545e-01
9.150000e+00	7.894480e-01	-4.092952e+00	8.395850e+00	-6.226476e-01	-3.128650e+00	3.208301e-01
9.200000e+00	7.394508e-01	-4.243137e+00	8.411811e+00	-1.363577e+00	-2.848626e+00	3.176378e-01
9.250000e+00	6.547060e-01	-4.374956e+00	8.427614e+00	-2.005721e+00	-2.398539e+00	3.144772e-01
9.300000e+00	5.411287e-01	-4.480645e+00	8.443259e+00	-2.511452e+00	-1.809514e+00	3.113482e-01
9.350000e+00	4.062938e-01	-4.554208e+00	8.458749e+00	-2.852299e+00	-1.120627e+00	3.082502e-01
9.400000e+00	2.589365e-01	-4.591747e+00	8.474085e+00	-3.010523e+00	-3.763331e-01	3.051831e-01
9.450000e+00	1.083907e-01	-4.591664e+00	8.489268e+00	-2.979997e+00	3.763795e-01	3.021465e-01
9.500000e+00	-3.599888e-02	-4.554710e+00	8.504300e+00	-2.766352e+00	1.090936e+00	2.991401e-01
9.550000e+00	-1.654523e-01	-4.483897e+00	8.519182e+00	-2.386396e+00	1.724041e+00	2.961636e-01
9.600000e+00	-2.722852e-01	-4.384263e+00	8.533916e+00	-1.866859e+00	2.238278e+00	2.932167e-01
9.650000e+00	-3.503601e-01	-4.262523e+00	8.548504e+00	-1.242544e+00	2.604305e+00	2.902992e-01
9.700000e+00	-3.954348e-01	-4.126622e+00	8.562947e+00	-5.540222e-01	2.802499e+00	2.874107e-01
9.750000e+00	-4.053858e-01	-3.985219e+00	8.577245e+00	1.549806e-01	2.823973e+00	2.845509e-01
9.800000e+00	-3.802972e-01	-3.847143e+00	8.591402e+00	8.403459e-01	2.670914e+00	2.817196e-01
9.850000e+00	-3.224117e-01	-3.720839e+00	8.605418e+00	1.460288e+00	2.356226e+00	2.789165e-01
9.900000e+00	-2.359496e-01	-3.613861e+00	8.619294e+00	1.977886e+00	1.902520e+00	2.761412e-01
9.950000e+00	-1.268092e-01	-3.532420e+00	8.633032e+00	2.363260e+00	1.340530e+00	2.733936e-01
